> Measurement made Tue Dec 12 10:10:22 2023
> Main magnet sweep 10.00000 to 12.50000 Tesla at  3.999 mT/s 
> Hysteresis correction (approximate) has been applied. 
> Main Magnet at 10.42056 T 
> ITC set at   10.000 K, T1:   9.994 K, T2: 509.100 K, T3: 324.100 K 
> For Cernox1 -219.440000 Ohm corresponds to T = 0.000000 K at 0 T 
> LockIn1:   2 mV, Mod Freq 39330.000000 Hz, Phase 160.510000 degr, Ampl. 0.150000 V
>  Tc 0.300000 seconds, Slope 18/oct, Dyn Res Normal .
> LockIn2:   2 mV, Mod Freq 39330.100000 Hz, Phase -18.390000 degr, Ampl. 0.010000 V
>  Tc 0.300000 seconds, Slope 18/oct, Dyn Res Normal .
> Modulation: 26.991870 mA 
> Source Freq 307.608 GHz (dial 12.817), LO Freq 311.808 GHz (dial 3760) 
> Martin Pupplet setting 7.0 mm, Attenuator Grid 20 dB
> Source attn 20 dB, Diode reading (-20dB) 0 mV
> Reference attn 0 dB, Diode reading (-30dB) 6.5 mV
Field  Signal1_X  Signal2_X    Signal1_Y   Signal2_Y    
T  mV mV mV mV 
YMnSn same orientation perp field 300 GHz 
10K

>BEGIN
      10.000006       0.0469687      -0.0121594       0.0212194      0.00309946 
      10.000025       0.0474455      -0.0116826       0.0214578      0.00357629 
      10.000057       0.0485184      -0.0100136       0.0216962      0.00405314 
        10.0001       0.0497105     -0.00786787       0.0218154      0.00452998 
      10.000154       0.0509026     -0.00584128       0.0218154       0.0047684 
       10.00022       0.0516179     -0.00500682       0.0220538      0.00452998 
      10.000297       0.0520947     -0.00441077        0.022173      0.00393394 
      10.000384       0.0520947     -0.00429156       0.0220538      0.00298025 
      10.000481       0.0516179      -0.0047684       0.0216962      0.00178815 
      10.000589       0.0509026     -0.00596049       0.0214578      0.00059605 
      10.000706       0.0501873      -0.0072718        0.020981     -0.00059605 
      10.000833       0.0497105      -0.0082255       0.0206233     -0.00166894 
      10.000968       0.0493529     -0.00905996       0.0201465     -0.00286104 
      10.001111       0.0492337     -0.00977522       0.0197889     -0.00381473 
      10.001265       0.0489953      -0.0102521       0.0194312     -0.00441077 
      10.001426       0.0486376      -0.0109673       0.0191928     -0.00512603 
      10.001594       0.0480416      -0.0120402       0.0188352     -0.00548366 
      10.001772       0.0476839      -0.0129939       0.0185968     -0.00584128 
      10.001956       0.0474455      -0.0138283       0.0184776     -0.00596049 
      10.002149       0.0473263      -0.0143052       0.0185968     -0.00536445 
      10.002348       0.0470879      -0.0146628       0.0191928     -0.00405314 
      10.002553       0.0470879      -0.0143052       0.0199081     -0.00250341 
      10.002768       0.0472071      -0.0137091       0.0208617     -0.00131131 
      10.002986       0.0472071      -0.0131131       0.0214578    -0.000476841 
       10.00318       0.0472071      -0.0131131       0.0218154               0 
       10.00341       0.0469687      -0.0137091       0.0219346      0.00023842 
      10.003649       0.0468495      -0.0146628       0.0220538      0.00023842 
      10.003891       0.0469687      -0.0156165       0.0216962     -0.00023842 
      10.004139       0.0469687       -0.016451       0.0211002     -0.00131131 
       10.00443       0.0470879      -0.0171663       0.0200273     -0.00262262 
      10.004692       0.0472071      -0.0172855        0.019312     -0.00321867 
      10.004956       0.0473263      -0.0166894       0.0189544     -0.00309946 
      10.005226       0.0479224      -0.0153781        0.019312     -0.00250341 
      10.005503       0.0485184      -0.0134707       0.0196696     -0.00202657 
      10.005823       0.0486376      -0.0121594       0.0205041      -0.0011921 
      10.006108       0.0486376      -0.0112057       0.0212194    -0.000834469 
      10.006399        0.048876      -0.0103713       0.0216962    -0.000715259 
      10.006692       0.0491145      -0.0100136        0.022173    -0.000476841 
      10.006989       0.0493529      -0.0095368       0.0225307     -0.00023842 
      10.007293       0.0498297     -0.00846392       0.0226499      0.00011921 
      10.007599       0.0503066     -0.00679496       0.0227691     0.000715259 
      10.007908       0.0506642     -0.00560287       0.0227691     0.000715259 
      10.008223       0.0510218     -0.00417235       0.0225307      0.00023842 
       10.00854       0.0513794     -0.00274183       0.0222923     -0.00023842 
      10.008863       0.0518563      -0.0011921       0.0222923    -0.000715259 
      10.009186       0.0520947               0       0.0224115    -0.000476841 
      10.009512       0.0523331      0.00035763       0.0227691     0.000953682 
      10.009845       0.0524523               0       0.0233651      0.00250341 
      10.010227       0.0525715     -0.00107289       0.0237228      0.00381473 
      10.010563       0.0526907      -0.0023842       0.0240804       0.0047684 
      10.010902       0.0529292     -0.00309946       0.0240804       0.0047684 
      10.011248       0.0532868     -0.00298025       0.0239612      0.00429156 
      10.011592       0.0537636     -0.00190736        0.023842      0.00405314 
      10.011943       0.0543597    -0.000953682       0.0237228      0.00405314 
      10.012293       0.0548365     -0.00035763        0.023842      0.00393394 
      10.012646       0.0549557      0.00011921       0.0240804      0.00381473 
      10.013053       0.0544789               0        0.024438       0.0036955 
      10.013414       0.0536444     -0.00143052       0.0246764      0.00286104 
      10.013774       0.0523331     -0.00333787       0.0240804      0.00190736 
      10.014136       0.0513794     -0.00488761       0.0233651      0.00143052 
      10.014503        0.051141     -0.00500682       0.0225307      0.00178815 
      10.014924       0.0516179     -0.00464919       0.0226499      0.00262262 
      10.015347       0.0519755     -0.00441077       0.0234843      0.00298025 
      10.015718       0.0524523     -0.00441077       0.0240804      0.00309946 
      10.016094       0.0526907     -0.00441077       0.0247956      0.00286104 
      10.016469       0.0526907     -0.00429156       0.0247956      0.00178815 
      10.016845       0.0530484     -0.00417235       0.0245572     0.000834469 
      10.017279       0.0529292     -0.00417235       0.0240804               0 
      10.017663       0.0529292     -0.00381473        0.023842     -0.00011921 
      10.018044       0.0530484     -0.00309946        0.023842     0.000715259 
      10.018428       0.0531676     -0.00250341       0.0239612      0.00202657 
       10.01876       0.0532868      -0.0023842        0.023842      0.00345708 
      10.019149       0.0535252     -0.00226499        0.023842      0.00488761 
      10.019537       0.0541213     -0.00226499       0.0239612      0.00655654 
      10.019926       0.0545981     -0.00202657       0.0240804      0.00798708 
       10.02032       0.0548365     -0.00202657        0.023842      0.00810629 
      10.020712       0.0548365     -0.00226499       0.0236036      0.00751021 
      10.021163       0.0544789     -0.00262262        0.023842      0.00739101 
      10.021615       0.0541213     -0.00357629       0.0243188      0.00715259 
      10.022011       0.0537636     -0.00441077       0.0246764      0.00667575 
      10.022411       0.0532868     -0.00596049       0.0247956      0.00548366 
       10.02281       0.0525715     -0.00786787       0.0245572      0.00417235 
      10.023213       0.0518563     -0.00941759       0.0243188      0.00345708 
      10.023613       0.0513794      -0.0103713       0.0239612      0.00286104 
      10.024014        0.051141      -0.0106097       0.0237228      0.00214578 
       10.02442        0.051141      -0.0104905       0.0234843      0.00154973 
      10.024824        0.051141      -0.0104905       0.0233651     0.000834469 
      10.025228       0.0512602      -0.0106097       0.0231267               0 
      10.025637       0.0514986      -0.0104905       0.0230075    -0.000476841 
      10.026043       0.0517371      -0.0102521       0.0228883     -0.00023842 
      10.026454       0.0520947     -0.00941759       0.0228883      0.00035763 
      10.026862       0.0526907     -0.00846392       0.0228883       0.0011921 
       10.02727       0.0532868     -0.00751021       0.0231267      0.00214578 
      10.027683       0.0537636     -0.00691417       0.0232459      0.00262262 
      10.028094       0.0538828     -0.00691417       0.0230075      0.00309946 
      10.028505       0.0541213      -0.0072718       0.0227691      0.00381473 
       10.02892       0.0541213     -0.00751021       0.0224115      0.00464919 
      10.029393       0.0542405     -0.00739101        0.022173      0.00584128 
      10.029806       0.0547173     -0.00667575       0.0224115      0.00703338 
      10.030224       0.0551941      -0.0060797       0.0227691       0.0072718 
      10.030639       0.0554326     -0.00536445       0.0230075      0.00691417 
      10.031054        0.055671     -0.00464919       0.0232459      0.00643733 
      10.031473       0.0557902     -0.00381473       0.0234843       0.0060797 
       10.03189       0.0555518     -0.00321867       0.0236036      0.00536445 
      10.032306       0.0553133      -0.0023842        0.023842      0.00488761 
      10.032728       0.0550749     -0.00154973       0.0241996      0.00512603 
      10.033146       0.0547173     -0.00143052        0.024438      0.00536445 
      10.033568       0.0542405     -0.00202657        0.024438      0.00536445 
      10.033987       0.0538828     -0.00262262       0.0245572      0.00572208 
      10.034407       0.0536444     -0.00309946       0.0247956      0.00631812 
      10.034831       0.0536444     -0.00393394       0.0249149      0.00679496 
      10.035189       0.0537636     -0.00417235       0.0250341       0.0072718 
      10.035614        0.054002     -0.00405314       0.0251533      0.00715259 
      10.036035       0.0542405     -0.00429156       0.0251533      0.00691417 
      10.036461       0.0543597     -0.00429156       0.0251533      0.00631812 
      10.036883       0.0544789     -0.00488761       0.0249149      0.00596049 
      10.037306       0.0544789     -0.00584128       0.0250341      0.00584128 
      10.037732       0.0544789     -0.00655654       0.0251533      0.00572208 
      10.038156       0.0547173     -0.00655654       0.0253917      0.00548366 
      10.038579       0.0549557      -0.0060797       0.0259877      0.00619891 
      10.039007       0.0550749     -0.00596049       0.0264646       0.0072718 
      10.039432       0.0548365     -0.00631812        0.026703      0.00774866 
       10.03986       0.0544789     -0.00715259        0.026703      0.00751021 
      10.040285       0.0541213     -0.00810629       0.0265838      0.00691417 
      10.040711       0.0536444     -0.00834471        0.026107      0.00596049 
       10.04114       0.0535252     -0.00786787       0.0255109      0.00512603 
      10.041566       0.0535252     -0.00703338       0.0255109      0.00488761 
      10.041993       0.0535252     -0.00572208       0.0255109      0.00500682 
      10.042423       0.0535252     -0.00441077       0.0251533      0.00500682 
       10.04285        0.053406     -0.00321867       0.0247956      0.00464919 
      10.043281       0.0535252     -0.00214578       0.0243188       0.0036955 
      10.043708       0.0535252     -0.00143052       0.0236036      0.00226499 
      10.044136       0.0536444     -0.00154973       0.0226499      0.00023842 
      10.044568       0.0537636     -0.00190736       0.0220538      -0.0011921 
      10.044996       0.0537636     -0.00226499        0.021577     -0.00166894 
      10.045424       0.0536444     -0.00274183       0.0216962     -0.00166894 
      10.045857        0.053406     -0.00393394       0.0218154      -0.0023842 
      10.046285       0.0530484     -0.00536445        0.022173     -0.00309946 
      10.046718       0.0526907     -0.00643733       0.0224115     -0.00357629 
      10.047147       0.0526907     -0.00691417       0.0227691     -0.00333787 
      10.047577       0.0526907     -0.00703338       0.0227691     -0.00309946 
       10.04801       0.0529292     -0.00739101       0.0226499     -0.00274183 
       10.04844       0.0530484     -0.00810629       0.0222923     -0.00250341 
       10.04887       0.0532868     -0.00858313       0.0218154     -0.00214578 
      10.049304        0.053406     -0.00882155        0.021577     -0.00202657 
      10.049734       0.0536444     -0.00917917        0.021577     -0.00178815 
      10.050169       0.0538828     -0.00894075        0.021577     -0.00190736 
      10.050662       0.0544789      -0.0082255       0.0213386     -0.00202657 
      10.051093       0.0548365     -0.00715259        0.020981     -0.00226499 
      10.051524       0.0548365     -0.00667575       0.0205041     -0.00250341 
      10.052018       0.0545981     -0.00691417       0.0201465     -0.00214578 
      10.052454       0.0541213     -0.00762945       0.0200273     -0.00131131 
      10.052885       0.0536444     -0.00870234       0.0201465     -0.00035763 
      10.053316       0.0535252     -0.00929838       0.0202657      0.00035763 
      10.053752       0.0537636     -0.00929838        0.020981       0.0011921 
      10.054184       0.0542405     -0.00929838       0.0216962      0.00154973 
       10.05462       0.0544789     -0.00977522       0.0222923      0.00154973 
      10.055052       0.0544789      -0.0102521       0.0225307       0.0011921 
      10.055484       0.0544789      -0.0103713       0.0226499      0.00035763 
      10.055979       0.0544789      -0.0104905       0.0227691               0 
      10.056416       0.0548365      -0.0102521       0.0226499               0 
      10.056848       0.0551941     -0.00989443       0.0225307      0.00011921 
      10.057344       0.0559094     -0.00917917       0.0225307     0.000715259 
      10.057777       0.0567439     -0.00917917        0.022173      0.00178815 
      10.058214       0.0571015      -0.0103713       0.0218154      0.00298025 
      10.058647       0.0571015       -0.011921       0.0218154      0.00464919 
      10.059083       0.0569823      -0.0127555       0.0220538      0.00631812 
      10.059517       0.0568631      -0.0127555       0.0220538      0.00715259 
       10.05995       0.0567439      -0.0120402       0.0218154      0.00667575 
      10.060387       0.0566246      -0.0104905       0.0216962      0.00500682 
       10.06082       0.0566246     -0.00882155        0.021577      0.00357629 
      10.061253       0.0568631     -0.00655654       0.0216962      0.00309946 
      10.061691       0.0569823     -0.00488761       0.0220538      0.00286104 
      10.062124       0.0571015     -0.00298025       0.0220538      0.00226499 
      10.062562       0.0571015     -0.00190736       0.0219346      0.00131131 
      10.062932       0.0568631     -0.00143052       0.0216962      0.00059605 
      10.063493       0.0563862     -0.00226499       0.0213386      0.00023842 
      10.063927       0.0557902     -0.00381473        0.020981      0.00011921 
      10.064365       0.0550749     -0.00512603       0.0208617     -0.00023842 
      10.064862       0.0543597     -0.00584128       0.0208617    -0.000476841 
      10.065296       0.0532868     -0.00596049       0.0214578    -0.000953682 
       10.06573       0.0520947     -0.00584128       0.0222923     -0.00107289 
      10.066168       0.0512602     -0.00572208       0.0232459    -0.000715259 
      10.066602       0.0512602     -0.00536445       0.0241996     -0.00035763 
      10.067041       0.0514986     -0.00500682       0.0247956      0.00059605 
      10.067475       0.0518563     -0.00500682       0.0251533      0.00154973 
      10.067909       0.0522139     -0.00524524       0.0255109      0.00226499 
      10.068407       0.0529292     -0.00488761       0.0255109       0.0023842 
      10.068905       0.0532868     -0.00393394       0.0251533      0.00202657 
      10.069344       0.0536444     -0.00250341       0.0247956      0.00154973 
      10.069778       0.0537636      -0.0011921       0.0245572      0.00166894 
      10.070213       0.0541213     -0.00023842       0.0243188      0.00178815 
      10.070651       0.0544789      0.00059605       0.0239612      0.00190736 
       10.07115       0.0549557     0.000834469       0.0236036      0.00226499 
      10.071525       0.0551941      0.00035763       0.0231267      0.00250341 
      10.072023       0.0551941     -0.00023842       0.0227691      0.00357629 
      10.072458       0.0549557    -0.000953682       0.0224115      0.00548366 
      10.072893       0.0547173     -0.00143052        0.022173      0.00703338 
      10.073391       0.0543597     -0.00190736       0.0220538      0.00846392 
       10.07389       0.0542405     -0.00190736       0.0220538      0.00977522 
      10.074329       0.0542405     -0.00154973       0.0222923       0.0107289 
      10.074764       0.0542405    -0.000953682       0.0224115       0.0107289 
      10.075199       0.0543597     -0.00035763       0.0225307      0.00989443 
      10.075638       0.0542405      0.00011921       0.0228883      0.00917917 
      10.076013       0.0541213     0.000715259       0.0236036      0.00858313 
      10.076448       0.0538828     0.000834469       0.0240804      0.00846392 
      10.076823       0.0536444      0.00059605       0.0247956       0.0082255 
      10.077258       0.0532868      0.00023842       0.0251533      0.00834471 
      10.077693       0.0532868     -0.00035763        0.026107      0.00905996 
      10.078132        0.053406     -0.00107289       0.0270606      0.00965601 
      10.078567       0.0537636     -0.00166894       0.0276567       0.0101328 
      10.079007       0.0541213     -0.00214578       0.0280143       0.0108481 
      10.079442       0.0542405     -0.00298025       0.0282527       0.0110865 
      10.079877       0.0541213     -0.00429156       0.0282527       0.0108481 
      10.080316       0.0538828     -0.00548366       0.0280143       0.0106097 
      10.080752       0.0537636     -0.00619891       0.0274183      0.00989443 
      10.081187       0.0537636     -0.00631812       0.0264646      0.00905996 
      10.081686        0.054002     -0.00619891       0.0256301      0.00834471 
      10.082125       0.0544789     -0.00596049       0.0247956      0.00762945 
      10.082561       0.0549557     -0.00584128       0.0243188      0.00691417 
         10.083       0.0554326     -0.00560287       0.0236036      0.00596049 
      10.083435        0.055671     -0.00548366       0.0227691       0.0047684 
      10.083871       0.0557902     -0.00560287        0.022173      0.00309946 
       10.08431       0.0557902     -0.00631812        0.021577     0.000953682 
      10.084746       0.0557902      -0.0072718       0.0212194    -0.000834469 
      10.085181       0.0557902      -0.0082255       0.0211002     -0.00166894 
       10.08562       0.0557902     -0.00905996       0.0212194     -0.00214578 
      10.086056        0.055671      -0.0095368       0.0214578     -0.00202657 
      10.086495        0.055671      -0.0095368       0.0216962     -0.00131131 
      10.086931       0.0557902     -0.00870234       0.0218154    -0.000953682 
      10.087366       0.0557902     -0.00715259       0.0216962     -0.00107289 
